Mon Jul 15 12:14:02 2019

<permalloy> : Rectangle : 0m, 0m, 0m; 640nm, 320nm, 10nm. Cells : 128, 64, 2. Cellsize : 5nm, 5nm, 5nm
<permalloy2> : Rectangle : 0m, 0m, 11nm; 640nm, 320nm, 31nm. Cells : 128, 64, 4. Cellsize : 5nm, 5nm, 5nm
<permalloy0> : Rectangle : 0m, 0m, -21nm; 640nm, 320nm, -1000pm. Cells : 128, 64, 4. Cellsize : 5nm, 5nm, 5nm
<supermesh> : Rectangle : 0m, 0m, -21nm; 640nm, 320nm, 31nm. Cells : 128, 64, 52. Cellsize : 5nm, 5nm, 1000pm

Saved data (dataname (unit) <meshname> (cells_rectangle)) : 

time (s)	<M> (A/m) <permalloy0> (0m, 0m, 0m; 640nm, 320nm, 20nm)			<M> (A/m) <permalloy> (0m, 0m, 0m; 640nm, 320nm, 10nm)			<M> (A/m) <permalloy2> (0m, 0m, 0m; 640nm, 320nm, 20nm)			

0	-800000	9.79717e-11	9.79717e-11	800000	0	9.79718e-11	-800000	9.79717e-11	9.79717e-11
1.05e-11	-798876	2322.3	3103.28	799462	1091.85	-577.923	-798876	2322.3	3103.28
2.05e-11	-797268	8277.48	5540.37	796569	3065.41	-133.478	-797268	8277.48	5540.36
3.05e-11	-794154	16822.8	7254.16	791148	3671.29	1647.04	-794154	16822.8	7254.16
4.05e-11	-788599	26654.2	8294.9	785892	646.349	4584.66	-788599	26654.2	8294.9
5.05e-11	-778055	36518.1	8781.83	782781	-7429.49	8102.83	-778055	36518.1	8781.82
6.05e-11	-759838	45299.1	8761.22	780897	-20575.5	11335	-759838	45299.1	8761.21
7.05e-11	-729760	51938	8334.47	778631	-37428.5	13371.8	-729760	51938	8334.47
8.05e-11	-690671	56254.5	7825.39	772544	-55401.9	13681.4	-690671	56254.5	7825.4
9.05e-11	-651394	59501	7497.11	755671	-70616.7	12639.6	-651394	59501	7497.12
1.005e-10	-618125	63146.1	7391.78	725133	-79841.9	11355.4	-618124	63146.1	7391.79
1.105e-10	-589721	67378.3	7386.71	689297	-83141.6	10323.4	-589721	67378.3	7386.71
1.205e-10	-557945	70637.6	7158.21	660251	-83378.4	9526.04	-557945	70637.6	7158.21
1.305e-10	-516442	71314.8	6524.32	639346	-83664.2	8149.72	-516442	71314.8	6524.32
1.405e-10	-467190	69413.7	5851.74	619074	-82117.2	5452.29	-467190	69413.8	5851.76
1.505e-10	-415451	65628.5	5056.64	594201	-75269	4139.3	-415451	65628.5	5056.66
1.605e-10	-363757	60307.5	4020.61	559416	-65695.4	5921.41	-363757	60307.5	4020.63
1.705e-10	-310706	53905.6	3191.74	510024	-57953.2	7841.68	-310706	53905.7	3191.75
1.805e-10	-252396	46506.5	3271.77	448293	-54807.2	7703.1	-252396	46506.6	3271.78
1.905e-10	-186334	36787.4	4698.57	381872	-57821.1	6575.32	-186334	36787.5	4698.57
2.005e-10	-114802	22978.8	7166.66	320997	-67360.9	5027.98	-114802	22979	7166.67
2.105e-10	-44601.9	5216.9	9021.82	276407	-79322.7	3059.6	-44601.9	5217	9021.83
2.205e-10	14272.5	-13810.7	8030.14	253284	-85558.5	3241.18	14272.5	-13810.6	8030.15
2.305e-10	53769.8	-30698.5	4136.74	249840	-86238.2	7132.97	53769.8	-30698.4	4136.76
2.405e-10	74641	-42426.7	-311.992	260535	-89907	11893.9	74641	-42426.7	-311.976
2.505e-10	83365.4	-48119	-3858.94	277719	-98893.5	15114.3	83365.4	-48118.9	-3858.94
2.605e-10	85844	-48482.1	-7588.32	293622	-110888	14407.7	85843.9	-48482	-7588.32
2.705e-10	87092	-43593.8	-12536	304565	-120972	9037.56	87092	-43593.7	-12536
2.805e-10	88173.1	-30957.6	-17702.2	312078	-124696	998.714	88173	-30957.5	-17702.2
2.905e-10	87523.9	-9908.33	-20471	320442	-122653	-6200.91	87523.9	-9908.25	-20471
3.005e-10	84432.8	15153.1	-18771.7	336891	-115466	-7862.25	84432.9	15153.1	-18771.8
3.105e-10	79212.8	38991.1	-12746.7	366167	-107345	-3940.32	79212.8	38991.2	-12746.7
3.205e-10	73503.1	55562.8	-4698.66	398573	-108580	1364.28	73503.1	55562.9	-4698.66
3.305e-10	69872.9	60839.3	1885.7	420497	-121483	4207.15	69873	60839.4	1885.71
3.405e-10	70456.8	54221	5252.87	428839	-139203	2119.49	70456.8	54221.1	5252.89
3.505e-10	74715.9	37742.2	5700.74	430335	-152885	-3849.58	74715.9	37742.4	5700.75
3.605e-10	81588.9	16752.3	4565.75	431623	-160096	-10765.2	81588.9	16752.4	4565.76
3.705e-10	89227.7	-1428.66	2075.74	433446	-160555	-18710.6	89227.7	-1428.58	2075.75
3.805e-10	97381.4	-13183.9	-796.609	434664	-150281	-27336.7	97381.5	-13183.9	-796.609
3.905e-10	107077	-19481.2	-2976.97	432786	-126856	-35104.6	107077	-19481.2	-2976.97
4.005e-10	118091	-22385.3	-5378.65	422976	-91691.2	-41033.8	118091	-22385.4	-5378.66
4.105e-10	128891	-24030.5	-8234.32	404767	-51349.8	-43791.5	128891	-24030.6	-8234.32
4.205e-10	138756	-25345.4	-10885.9	383561	-10227.7	-44693.4	138756	-25345.4	-10885.9
4.305e-10	147740	-26522	-13183.8	362552	31160	-45161.5	147740	-26522	-13183.8
4.405e-10	155723	-28491.8	-15702.2	342973	73823	-43688.7	155723	-28491.8	-15702.2
4.505e-10	165269	-30960	-18264	326693	118066	-39723.2	165269	-30959.9	-18264
4.605e-10	178766	-33138.3	-18509	313479	158546	-36035.5	178766	-33138.2	-18509
4.705e-10	196873	-35249.3	-14562.4	300229	188157	-34129.5	196873	-35249.2	-14562.5
4.805e-10	218373	-37291.2	-8150.7	286133	203300	-32081.7	218373	-37291	-8150.73
4.905e-10	239773	-39411.8	-1685.1	271752	208269	-28278.9	239773	-39411.7	-1685.1
5.005e-10	256308	-42977.5	3874.86	257038	212312	-23386.9	256308	-42977.4	3874.88
5.105e-10	265690	-48877.7	7793.89	239696	221113	-19449.7	265690	-48877.6	7793.93
5.205e-10	268347	-56635.1	9237.02	218563	236177	-17223.5	268347	-56635.1	9237.07
5.305e-10	265647	-66221.6	7946.79	196396	254923	-16335.7	265647	-66221.6	7946.83
5.405e-10	260035	-76710.2	5102.33	177927	274680	-16021.9	260034	-76710.2	5102.36
5.505e-10	254721	-85984.9	2283.74	166415	295930	-15194.7	254721	-85984.9	2283.75
5.605e-10	251702	-92890.6	-400.187	160596	319726	-15035.6	251702	-92890.6	-400.191
5.705e-10	252047	-96493.7	-3425.05	158381	343166	-15867.6	252047	-96493.7	-3425.05
5.805e-10	255653	-95479.6	-6001.01	157272	362416	-16776.3	255653	-95479.6	-6001
5.905e-10	261315	-89320.1	-6628.17	153365	376983	-17190.1	261315	-89320.1	-6628.15
6.005e-10	267452	-80221.2	-5453.44	142955	388927	-17627.4	267451	-80221.2	-5453.44
6.105e-10	273472	-71892.6	-4605.75	123884	399767	-18625.3	273471	-71892.6	-4605.76
6.205e-10	280690	-65846.9	-6019.74	98054	409558	-19244.7	280690	-65846.9	-6019.75
6.305e-10	291189	-62288.9	-9286.96	68377.7	416994	-20652.8	291189	-62288.8	-9286.97
6.405e-10	305291	-60193.7	-11906.9	34130.4	418613	-25050.3	305291	-60193.6	-11906.9
6.505e-10	321102	-57683.9	-12158.5	-5304.18	411330	-30524.5	321102	-57683.8	-12158.6
6.605e-10	336083	-54332.1	-10638.6	-46344.1	394412	-34518.9	336083	-54332.1	-10638.7
6.705e-10	349095	-51221.4	-8816.43	-83191.6	370332	-34851.9	349094	-51221.3	-8816.48
6.805e-10	360104	-48380.3	-8134.63	-111986	345379	-31602.3	360104	-48380.2	-8134.66
6.905e-10	369196	-44653	-9036.22	-134493	325572	-27099.9	369196	-44652.9	-9036.21
7.005e-10	377278	-39242.2	-11212.8	-153375	314786	-22526.1	377278	-39242.2	-11212.8
7.105e-10	384873	-31568	-13620.3	-170415	312424	-19329.1	384872	-31568	-13620.2
7.205e-10	391865	-21800.5	-14452.4	-188109	312589	-18589.1	391864	-21800.6	-14452.3
7.305e-10	397849	-12284.8	-12838.1	-208865	312434	-20566.3	397849	-12285	-12838.1
7.405e-10	403315	-5931.5	-9342.49	-233612	310248	-24155.5	403315	-5931.78	-9342.5
7.505e-10	409368	-3194.81	-5942.3	-261981	304934	-26204.1	409367	-3195.1	-5942.34
7.605e-10	417721	-2513.47	-4253.19	-292241	298306	-26315.1	417720	-2513.77	-4253.23
7.705e-10	428783	-2043.63	-3794.87	-321464	290367	-27399.7	428783	-2043.92	-3794.92
7.805e-10	440699	-1332.46	-3858.35	-347137	278558	-30510.1	440699	-1332.73	-3858.4
7.905e-10	451915	178.201	-4932.59	-369072	261535	-33786.8	451915	177.976	-4932.66
8.005e-10	461857	4098.13	-7628.96	-388545	240439	-34032.6	461857	4097.97	-7629.02
8.105e-10	469772	11944.6	-11864.5	-406411	220115	-30751	469772	11944.5	-11864.5
8.205e-10	474842	23707.4	-15835.6	-423293	204794	-26154.9	474842	23707.4	-15835.7
8.305e-10	476986	36221.3	-17887.7	-439472	194191	-21793.3	476986	36221.3	-17887.8
8.405e-10	476784	46402.3	-17498.4	-453744	186822	-17670.8	476784	46402.5	-17498.5
8.505e-10	474795	53582	-14674.3	-465247	183833	-14673.5	474795	53582.2	-14674.4
8.605e-10	472369	57404.4	-9914.69	-476066	183480	-12665.8	472369	57404.7	-9914.7
8.705e-10	471518	57017.4	-4779.84	-487782	183358	-11364.7	471519	57017.6	-4779.81
8.805e-10	473164	52701.3	-1079.12	-500168	181389	-11933.9	473164	52701.5	-1079.1
8.905e-10	476745	46160.9	324.728	-513552	175392	-14050.6	476745	46161.1	324.715
9.005e-10	480953	39814.9	-836.446	-527417	164898	-16304.5	480953	39815.1	-836.492
9.105e-10	484692	35824.9	-4380.88	-540547	150815	-17488.6	484692	35825	-4380.95
9.205e-10	487404	35729.1	-8948.99	-553145	134817	-17138.1	487404	35729.3	-8949.06
9.305e-10	489255	40007.1	-12474.9	-564593	119744	-16011.9	489255	40007.3	-12474.9
9.405e-10	490714	46774	-13793.2	-573293	106690	-16132.3	490713	46774.2	-13793.2
9.505e-10	491515	53115.3	-13256.3	-577991	92786.6	-18693	491515	53115.5	-13256.2
9.605e-10	490984	57150	-11714.9	-579590	75554.6	-22454.4	490984	57150.2	-11714.9
9.705e-10	489015	58989.6	-10135.3	-581370	55898.1	-25340.1	489015	58989.8	-10135.3
9.805e-10	485955	60713.3	-9277.35	-585265	36788.6	-26318.9	485955	60713.4	-9277.31
9.905e-10	482569	64327.2	-9185.28	-590547	20165.2	-26013.9	482569	64327.2	-9185.21
1.0005e-09	479477	69630.4	-9236.36	-595774	5305.35	-25529.8	479477	69630.3	-9236.28
1.0105e-09	477561	75142.3	-8823.99	-600264	-9082.97	-25513.8	477561	75142.1	-8823.91
1.0205e-09	477784	79150.6	-7655.95	-604335	-24516.8	-26402.2	477784	79150.4	-7655.9
1.0305e-09	480360	79965.7	-6044.43	-609045	-41922.5	-27247.8	480360	79965.4	-6044.42
1.0405e-09	484916	77530.2	-4565.96	-614047	-59904.6	-26184.1	484916	77529.9	-4565.97
1.0505e-09	490327	73865.8	-3722.75	-618224	-74612.1	-22387.9	490327	73865.5	-3722.76
1.0605e-09	494840	71184.7	-4098.39	-621622	-83312.5	-17491	494840	71184.4	-4098.4
1.0705e-09	496635	70999.5	-5486.72	-625503	-85724.3	-13573	496635	70999.2	-5486.72
1.0805e-09	495073	73435.6	-6660.14	-629839	-81886.8	-11279.1	495073	73435.2	-6660.14
1.0905e-09	491041	76636.3	-6518.61	-634676	-72112.1	-10177.9	491041	76636	-6518.59
1.1005e-09	485487	78113.4	-4619.18	-640549	-58046	-10583.1	485487	78113	-4619.18
1.1105e-09	479285	76013.9	-1612.45	-648085	-43248.2	-12445.2	479285	76013.5	-1612.46
1.1205e-09	473626	69781	1080.07	-657905	-31161.5	-15216	473626	69780.6	1080.03
1.1305e-09	469887	60383.6	2246.48	-669746	-23561	-17502.8	469887	60383.2	2246.43
1.1405e-09	469063	50303.9	1404.16	-681616	-19455	-17913.2	469063	50303.5	1404.08
1.1505e-09	471026	42567.4	-1299.49	-692542	-16496.8	-16788.7	471026	42567.1	-1299.58
1.1605e-09	474853	39194.8	-4914.01	-702542	-13810.3	-15718.7	474853	39194.4	-4914.12
1.1705e-09	479395	40645.9	-8133.57	-711183	-12783.8	-16213.4	479395	40645.6	-8133.69
1.1805e-09	484022	45847.5	-9858.86	-716353	-15985.1	-17816.7	484022	45847.3	-9858.96
1.1905e-09	489144	52649.6	-9205.81	-714647	-23793	-19859.3	489144	52649.5	-9205.85
1.2005e-09	494385	58305.7	-6199.91	-707478	-35039.4	-22610.6	494385	58305.6	-6199.85
1.2105e-09	498155	60252.6	-2541.92	-698335	-51339	-25698.9	498155	60252.5	-2541.76
1.2205e-09	499624	57564.9	-251.604	-689017	-73712.3	-27451.2	499624	57564.6	-251.404
1.2305e-09	498808	51602.9	-461.477	-681382	-100466	-27356	498809	51602.3	-461.318
1.2405e-09	496222	45967.4	-2715.2	-675279	-127710	-25965.8	496222	45966.7	-2715.15
1.2505e-09	492847	44165.9	-5518.65	-671339	-152711	-22319.3	492847	44165.1	-5518.74
1.2605e-09	489886	47808.9	-7789.45	-670128	-174330	-17437.6	489886	47808.2	-7789.61
1.2705e-09	488110	56361.6	-8880.32	-670938	-192108	-12431.9	488110	56361	-8880.47
1.2805e-09	486938	67035.4	-8773.19	-673357	-204303	-7523.67	486937	67034.9	-8773.26
1.2905e-09	485443	76483.1	-7835.7	-677547	-209877	-3314.48	485443	76482.7	-7835.67
1.3005e-09	483417	82563.3	-6442.72	-682615	-209911	-870.897	483417	82562.9	-6442.63
1.3105e-09	481023	84828.6	-4965.17	-686759	-206023	136.129	481023	84828.3	-4965.08
1.3205e-09	478981	84640.4	-3562.04	-689303	-198251	1314.89	478981	84640.1	-3561.99
1.3305e-09	477776	84017.4	-2109.59	-691657	-186717	3627.24	477776	84017.1	-2109.59
1.3405e-09	476992	83991.4	-599.772	-694956	-172612	6254.13	476993	83991.1	-599.82
1.3505e-09	476240	83951.6	780.426	-698678	-156955	7707.85	476240	83951.4	780.298
1.3605e-09	476077	82831.6	1813.59	-701701	-141321	7398.65	476077	82831.5	1813.42
1.3705e-09	477073	80695.3	2455.16	-703930	-127044	5977.17	477073	80695.2	2455.03
1.3805e-09	479461	78297.7	3173.75	-705294	-114473	4033.5	479460	78297.6	3173.7
1.3905e-09	482872	75438.3	4245.06	-705223	-104593	2060.71	482872	75438.2	4245.08
1.4005e-09	486079	71154	5318.78	-703855	-98627.9	389.605	486079	71153.9	5318.86
1.4105e-09	487760	65171.8	5898.71	-702385	-96577.8	-1529.86	487759	65171.6	5898.81
1.4205e-09	487603	58014	5877.3	-700796	-98742	-4322.69	487602	58013.8	5877.39
1.4305e-09	486228	50823.8	5140.45	-698751	-105292	-6988.66	486227	50823.6	5140.49
1.4405e-09	484471	45432	3387.44	-697057	-115066	-8712.76	484471	45431.8	3387.45
1.4505e-09	483253	43257.7	719.028	-696632	-126232	-9552.27	483252	43257.4	719.031
1.4605e-09	483315	44315.5	-2161.8	-697612	-137244	-9538.5	483314	44315.1	-2161.79
1.4705e-09	484980	47481.3	-4443.72	-700215	-146182	-8582.3	484979	47480.7	-4443.71
1.4805e-09	487906	51670.6	-5350.07	-704501	-151296	-6783.79	487905	51669.9	-5350.09
1.4905e-09	491417	55679.6	-4654.43	-710264	-152214	-4770.82	491416	55678.8	-4654.49
1.5005e-09	494853	58129.8	-3306.93	-717070	-150163	-3278.14	494853	58129	-3307.01
1.5105e-09	497513	58510.3	-2434.62	-723873	-146541	-2515.61	497512	58509.6	-2434.72
1.5205e-09	498740	57353.8	-2304.97	-729657	-142163	-2521.44	498739	57353.2	-2305.06
1.5305e-09	498506	55854.5	-2632.65	-734157	-137932	-3128.89	498505	55854	-2632.7
1.5405e-09	497247	54949.2	-3056.85	-737819	-134405	-4240.99	497247	54948.7	-3056.84
1.5505e-09	495488	54571.5	-3565.4	-740692	-132101	-5996.57	495488	54571	-3565.34
1.5605e-09	493775	54158.2	-4002.16	-742095	-131973	-8264.92	493774	54157.7	-4002.09
1.5705e-09	492829	53466.2	-3919.34	-741345	-134498	-10433.9	492829	53465.7	-3919.29
1.5805e-09	493117	52693.4	-3229.94	-738636	-139148	-11873.9	493117	52692.8	-3229.91
1.5905e-09	494571	51991.5	-2077.51	-734329	-144822	-12473.2	494570	51990.8	-2077.49
1.6005e-09	496750	51061.1	-754.46	-729321	-150710	-12336	496750	51060.3	-754.45
1.6105e-09	499063	49662.8	51.0189	-724992	-156095	-11352.7	499063	49661.9	51.0169
1.6205e-09	501156	48270.5	-191.489	-722148	-159933	-9366.21	501156	48269.5	-191.503
1.6305e-09	503080	48043.3	-1282.55	-720615	-160979	-6666.22	503079	48042.3	-1282.57
1.6405e-09	505038	50021.9	-2704.67	-720333	-158485	-4243.76	505038	50020.8	-2704.68
1.6505e-09	507102	54249.1	-4084.25	-721474	-153207	-3026.92	507102	54248	-4084.25
1.6605e-09	509243	59685.1	-5188.58	-723764	-147166	-3427.13	509243	59683.9	-5188.56
1.6705e-09	511535	65108	-5915.26	-726411	-142727	-5336.9	511534	65106.8	-5915.25
1.6805e-09	514096	69628.7	-6241.4	-728293	-141711	-8269.29	514095	69627.5	-6241.41
1.6905e-09	516753	72700.6	-6162.4	-728683	-145390	-11908.3	516753	72699.4	-6162.42
1.7005e-09	519117	74212	-5751.35	-727538	-154918	-15841	519116	74210.8	-5751.39
1.7105e-09	520897	74742.6	-5229.86	-724871	-170060	-18848.6	520897	74741.5	-5229.93
1.7205e-09	521937	75495.8	-4930.46	-720390	-188384	-19950	521937	75494.7	-4930.54
1.7305e-09	522240	77597	-4938.96	-714386	-206837	-19255	522240	77596	-4939.05
1.7405e-09	522236	81497.4	-4844	-707968	-223430	-17563.3	522236	81496.4	-4844.09
1.7505e-09	522632	86910	-4208.26	-702000	-237499	-15736.8	522632	86909.1	-4208.35
1.7605e-09	523888	92812.5	-2879.92	-697108	-249392	-14286.6	523888	92811.7	-2880
1.7705e-09	526160	97788	-1100.45	-693831	-259750	-13280.6	526160	97787.1	-1100.55
1.7805e-09	529484	100895	583.002	-692128	-268969	-12325.4	529484	100894	582.886
1.7905e-09	533809	102128	1677.58	-691645	-276752	-10867.3	533808	102127	1677.43
1.8005e-09	539079	102035	2076.65	-691876	-282091	-8976.98	539078	102034	2076.5
1.8105e-09	545530	101179	2044	-692103	-283856	-7152.84	545529	101178	2043.88
1.8205e-09	553663	100028	1982.61	-691822	-281725	-5630.27	553661	100028	1982.54
1.8305e-09	563618	98845.2	2164.46	-691211	-276636	-4255.56	563616	98845	2164.47
1.8405e-09	574792	97622.1	2388.42	-690483	-269626	-2851.81	574791	97622.1	2388.56
1.8505e-09	585759	96378.8	2189.72	-689830	-261034	-1404.65	585758	96378.7	2189.95
1.8605e-09	595003	95453.3	1800.48	-689752	-250800	-146.303	595002	95453	1800.64
1.8705e-09	602121	94314.3	1832.28	-691593	-240154	395.517	602121	94313.7	1832.35
1.8805e-09	607340	92167.9	2521.55	-696245	-230721	-282.603	607339	92167.1	2521.6
1.8905e-09	611400	88799.2	3891.56	-702408	-223425	-1989.78	611399	88798.3	3891.63
1.9005e-09	614994	84340.3	5521.03	-707781	-218526	-3594.27	614993	84339.1	5521.12
1.9105e-09	618184	79187.5	6705.25	-710972	-215542	-4494.67	618183	79186	6705.33
1.9205e-09	620585	73930.2	6769.23	-711669	-213168	-4793.66	620584	73928.8	6769.2
1.9305e-09	622519	68987.7	6019.79	-710785	-211029	-4832.11	622518	68986.5	6019.69
1.9405e-09	624657	64365.4	4560.01	-709533	-209665	-4813.81	624656	64364.6	4560.1
1.9505e-09	627487	60524.3	2352.04	-708137	-208961	-4449.01	627486	60523.7	2352.31
1.9605e-09	631232	58267	-21.4061	-706424	-207823	-4003.65	631232	58266.2	-21.263
1.9705e-09	635466	57795.7	-1751.75	-704849	-205795	-4134.04	635466	57794.9	-1751.92
1.9805e-09	639587	58554.2	-2718.21	-704140	-202892	-4458.66	639587	58553.8	-2718.6
1.9905e-09	643255	59946.4	-3245.33	-704085	-199027	-4186.26	643256	59946.4	-3245.68
2.0005e-09	646206	61838.3	-3616.01	-704552	-194078	-3402.29	646206	61838.8	-3616.12
2.0105e-09	648683	64215.1	-3698.67	-705337	-188487	-2755.64	648683	64215.8	-3698.6
2.0205e-09	651397	66696.3	-2984.93	-705836	-183291	-3034.47	651396	66696.8	-2984.82
2.0305e-09	655097	68295.5	-1467.16	-705807	-179728	-4111.67	655096	68295.9	-1467.17
2.0405e-09	659990	68290.2	438.447	-706516	-178729	-5119.08	659989	68290.6	438.306
2.0505e-09	665862	66241.9	2320.78	-708329	-180491	-5465.55	665861	66242.3	2320.63
2.0605e-09	672436	62160.4	3731	-710233	-183694	-4670.35	672434	62160.9	3731
2.0705e-09	679210	56925.9	4244.52	-712035	-186285	-2619.88	679209	56926.4	4244.74
2.0805e-09	685515	51710.4	3964.7	-715241	-186685	338.252	685514	51710.7	3965.01
2.0905e-09	690910	47336.9	3592.05	-720690	-183635	3809.15	690908	47337	3592.26
2.1005e-09	695712	43795.7	3727.15	-726979	-176127	7208.26	695711	43795.8	3727.22
2.1105e-09	700651	40497.5	4386	-731975	-163647	10471.4	700650	40497.7	4386.01
2.1205e-09	705904	36780.3	5206.87	-734048	-146410	13511.2	705903	36780.7	5206.97
2.1305e-09	711145	32259.2	5812.07	-732746	-126347	15852.4	711144	32259.7	5812.3
2.1405e-09	715914	27258.1	5862.09	-729005	-105950	17006.3	715913	27258.5	5862.35
2.1505e-09	720107	22644.9	5301.13	-724769	-86677.6	16765	720106	22645.1	5301.3
2.1605e-09	723808	19056.2	4491.81	-721795	-69366.2	15356.4	723807	19056.2	4491.87
2.1705e-09	726826	16338.6	3687.86	-720693	-54583.6	13309.1	726825	16338.6	3687.93
2.1805e-09	728964	13960.1	3031.81	-720595	-42090.6	10824.9	728964	13960.2	3031.95
2.1905e-09	730209	11411.2	2723.49	-721109	-32040.5	7771.32	730208	11411.3	2723.71
2.2005e-09	730430	8432.5	2596.94	-722694	-24481.4	4823.49	730430	8432.34	2597.27
2.2105e-09	729627	5001.57	2301.67	-725340	-18059.2	2733.26	729627	5000.92	2302.06
2.2205e-09	728440	1163.34	1723.02	-728101	-10979.9	945.78	728440	1162.25	1723.32
2.2305e-09	728020	-3153.19	1082.52	-731399	-4060.81	-1758.38	728019	-3154.51	1082.62
2.2405e-09	728949	-7603.3	322.535	-737565	-298.639	-5265.19	728949	-7604.72	322.463
2.2505e-09	730736	-10689.7	-1258.5	-747709	-1522.54	-7426.55	730735	-10691.1	-1258.77
2.2605e-09	732502	-10436.6	-3661.09	-757970	-5429.04	-7232.47	732501	-10437.8	-3661.46
2.2705e-09	733148	-6652.48	-5503.23	-764500	-8892.54	-6437.98	733148	-6653.38	-5503.5
2.2805e-09	731745	-1343.4	-5760.81	-766636	-12173.3	-5907.04	731745	-1344.22	-5760.86
2.2905e-09	728406	2955.64	-4553.25	-766304	-16716.9	-5637.17	728406	2954.59	-4553.12
2.3005e-09	724087	4941.44	-2859.26	-766349	-23091.2	-5502.35	724088	4940	-2859
2.3105e-09	719458	5029.89	-1860.2	-768145	-30748	-5307.38	719458	5027.99	-1859.82
2.3205e-09	714808	4545.21	-2006.43	-770964	-38210	-4881.61	714808	4542.89	-2006.06
2.3305e-09	710875	5043.63	-2988.85	-773368	-44312.9	-4412.48	710875	5040.99	-2988.61
2.3405e-09	707953	7869.77	-4358.88	-774337	-48853.8	-3867.47	707954	7866.99	-4358.81
